# From Murphy and Koop, Q. J. R. Meteorol. Soc.(2005),131, pp. 1539–1565
# https://rmets.onlinelibrary.wiley.com/doi/epdf/10.1256/qj.04.94
# Temperature (K)    Heat capacity (J/K/mol)
180.75491584660918 32.02711345255668
182.15384498603402 32.645286922703036
183.552887734183 33.36329405917448
184.95199540160291 34.138349004974515
186.3512491373824 35.041761521763874
187.75063271170376 36.05926965721045
189.15017858420245 37.21939731597851
190.54990298469616 38.53640645040022
191.9498870622736 40.08160682213631
193.35009835729932 41.826474526522475
194.75066670831512 43.88510518221594
196.15149473641463 46.17192707522375
197.55258244159785 48.686940205545966
198.95404343258895 51.529978239507614
200.35587770938784 54.70104117710869
201.69428748147118 57.98740276860636
202.96920945254982 61.33344139990524
204.18064885223163 64.74375258897902
205.32864336976007 68.2514557584657
206.41294306594207 71.63691684245016
207.43365456166353 74.99382894444778
208.45443300538312 78.40957159981554
209.4753676610984 81.96258554638021
210.49641389681057 85.6136504152284
211.5176758538501 89.45428040049144
212.54092629072153 92.81387478173312
213.36836824924384 96.11233984436497
214.26192636848805 99.43238671238394
215.21917116196784 102.86751639221457
216.24017276568125 106.47936089214936
217.26095120940084 109.89510354751712
218.2816850211217 113.27162583397146
219.42961556611857 116.7231131413489
220.76837914822846 120.32038529368741
222.17018096539192 123.46292432662419
223.57097653385597 125.72122231496773
224.97063601507875 126.98118364006083
226.3688510425234 126.97183120759266
227.7652807900175 125.39366401858811
229.1890660774293 122.36671235120892
230.04604548319315 119.03067992941837
230.868124393751 115.3879543370058
231.69026281364054 111.7975225698111
232.57604221310027 108.28201942720719
233.5256103027927 104.9712456539313
234.66553386721142 101.38659877824301
235.99603809507744 97.72596338875087
237.39063387316781 94.53619558621345
238.7857003159724 91.76002440130837
240.18122119367348 89.38318788170346
241.57713158700017 87.34863821807014
242.97339903631695 85.62785150574408
244.3700073118061 84.20656579239314
245.76677788547255 82.92789960236372
247.1638730554937 81.93447245897727
248.56100068515025 80.96956922025511
249.95838799189056 80.23285721884736
251.35585644771953 79.5674549791003
252.75345474209033 79.01614835801048
254.1511504153675 78.55041345091355
255.54895969736887 78.18451221014166
256.94678520918796 77.83287292170192
258.34465941046017 77.52401949025861
259.7426309906389 77.3007377728082
261.1406512602707 77.12024191235426
262.5385903808139 76.86843629023957
263.9366917995344 76.75925019144636
265.33482567789036 76.67858799731745
266.7328946369754 76.54087799385992
268.1309635960605 76.40316799040242
269.52903255514553 76.26545798694492
270.92724758259016 76.25610555447676
272.3254788398525 76.26101507434073
273.78199661128576 75.83740076271795
274.34204402340987 75.96413066941692
276.0008821350748 75.7458736078798
276.92024934981913 75.72475195676331
277.75659108074797 75.62618425155301
278.8349234273345 75.57690039894786
279.3603341553064 75.62618425155301
