# "On the time required to freeze water" JCP 2016  Figure 10
# DeltaT            log10(J) 1/m^-3 s^-1
18.120672723186658 -158.11328136981018
18.292316880574084 -153.5753695847718
18.542063670423513 -148.70010155517474
18.781820588678965 -143.63704552266665
19.06516967388995 -138.43242706732417
19.314613740357743 -133.37128080824846
19.554370658613195 -128.96891295017178
19.794127576868647 -124.7467327760309
20.0338844951241 -120.62465687074327
20.27364141337955 -116.66274779562077
20.561834072696712 -112.45011648864137
20.762035135751766 -108.45871991375215
21.067503209380934 -104.20711689557915
21.339227716737113 -99.54727654140073
21.694423151189632 -95.01333940224352
22.018538985127556 -90.6793230267139
22.338214876134828 -86.7632008630638
22.66233071007275 -82.74951814786449
23.090179756117834 -78.28700924463617
23.497039981036174 -73.83195032645666
23.89663484479526 -69.8354836955239
24.3034950697136 -65.81615135849825
24.806481611508254 -61.55804685979024
25.295216867952057 -57.2923550868113
25.814690190838867 -53.20647558134819
26.37412300010159 -49.015856588833444
26.944211672397884 -44.973776591816645
27.526288190606955 -40.870886995471
28.1759325675971 -36.64522176511561
28.851611155407923 -32.454379066962574
29.610841396550185 -28.4272069418177
30.410031124068354 -24.506515336901472
31.249180337962436 -20.76801948101925
32.128289038232424 -17.22154779329476
33.00739773850241 -13.888025186585352
33.8865064387724 -10.832974455049438
34.784394250513344 -7.9610616776941185
35.64472383931238 -5.427243029181277
36.523832539582365 -3.0601816363093803
37.40294123985235 -0.856927228833662
38.28204994012234 1.1825201932458427
39.16115864039233 2.976257137231073
40.205338809034906 4.951707354171425
40.919376040932306 6.455618414840046
41.798484741202294 8.029853998394373
42.67759344147228 9.495976971587218
43.55670214174227 10.91295784916121
44.558521560574945 12.318807513879385
45.31491954228225 13.435686332056434
46.194028242552235 14.426769047600331
47.073136942822224 15.466993858763075
47.95224564309221 16.474457272846585
48.8313543433622 17.31811370153391
49.81519507186858 18.19606053692297
50.58957174390218 19.054568654527415
51.468680444172165 19.849082987595878
52.34778914444215 20.610835923585107
53.22689784471214 21.307066065415853
54.41478439425051 22.22754582097499
55.544548054514834 23.061274062945728
56.42365675478482 23.554383542885205
57.30276545505481 24.135948794938614
58.1818741553248 24.570087760135465
59.06098285559479 25.1680337107285
59.940091555864775 25.618553374464963
60.81920025613476 26.052692339661807
61.69830895640475 26.437689209239796
62.57741765667474 26.839066777357402
63.45652635694473 27.22406364693539
64.33563505721472 27.57629911943414
65.21474375748471 27.91215389339327
66.09385245775469 28.215247270273164
66.98151950718686 28.40748345881818
67.85206985829467 28.82143402403295
68.73117855856466 29.0917660038336
69.49040879970693 29.201448571288182
